"","ProfileOutput"
"Position","Intensity"
"m","Counts"
0.000000e+00,3.271119e+04
6.847570e-11,3.274272e+04
1.369514e-10,3.282436e+04
2.054271e-10,3.282204e+04
2.739028e-10,3.266535e+04
3.423785e-10,3.251955e+04
4.108542e-10,3.227610e+04
4.793299e-10,3.203281e+04
5.478056e-10,3.191235e+04
6.162813e-10,3.164019e+04
6.847570e-10,3.143872e+04
7.532326e-10,3.122981e+04
8.217083e-10,3.102415e+04
8.901840e-10,3.086386e+04
9.586597e-10,3.059804e+04
1.027135e-09,3.049738e+04
1.095611e-09,3.038859e+04
1.164087e-09,3.033650e+04
1.232563e-09,3.028669e+04
1.301038e-09,3.015694e+04
1.369514e-09,3.017615e+04
1.437990e-09,3.030236e+04
1.506465e-09,3.050435e+04
1.574941e-09,3.062129e+04
1.643417e-09,3.082896e+04
1.711892e-09,3.110940e+04
1.780368e-09,3.140341e+04
1.848844e-09,3.164861e+04
1.917319e-09,3.200899e+04
1.985795e-09,3.219609e+04
2.054271e-09,3.248121e+04
2.122747e-09,3.267338e+04
2.191222e-09,3.287512e+04
2.259698e-09,3.297875e+04
2.328174e-09,3.295150e+04
2.396649e-09,3.305573e+04
2.465125e-09,3.318512e+04
2.533601e-09,3.317466e+04
2.602076e-09,3.323259e+04
2.670552e-09,3.311719e+04
2.739028e-09,3.299780e+04
2.807503e-09,3.274560e+04
2.875979e-09,3.253583e+04
2.944455e-09,3.219835e+04
3.012931e-09,3.196607e+04
3.081406e-09,3.145315e+04
3.149882e-09,3.114848e+04
3.218358e-09,3.091243e+04
3.286833e-09,3.078027e+04
3.355309e-09,3.046871e+04
3.423785e-09,3.035725e+04
3.492260e-09,3.014302e+04
3.560736e-09,2.997481e+04
3.629212e-09,2.988397e+04
3.697688e-09,3.009461e+04
3.766163e-09,3.028991e+04
3.834639e-09,3.023388e+04
3.903115e-09,3.037963e+04
3.971590e-09,3.058017e+04
4.040066e-09,3.074719e+04
4.108542e-09,3.089087e+04
4.177017e-09,3.125250e+04
4.245493e-09,3.146726e+04
4.313969e-09,3.168125e+04
4.382444e-09,3.211153e+04
4.450920e-09,3.247155e+04
4.519396e-09,3.273443e+04
4.587872e-09,3.280427e+04
4.656347e-09,3.299372e+04
4.724823e-09,3.313938e+04
4.793299e-09,3.328435e+04
4.861774e-09,3.329259e+04
4.930250e-09,3.326852e+04
4.998726e-09,3.329432e+04
5.067201e-09,3.321588e+04
5.135677e-09,3.300726e+04
5.204153e-09,3.283839e+04
5.272629e-09,3.275041e+04
5.341104e-09,3.249853e+04
5.409580e-09,3.204289e+04
5.478056e-09,3.191417e+04
5.546531e-09,3.153269e+04
5.615007e-09,3.125449e+04
5.683483e-09,3.103130e+04
5.751958e-09,3.073867e+04
5.820434e-09,3.050145e+04
5.888910e-09,3.026052e+04
5.957385e-09,3.000823e+04
6.025861e-09,2.983456e+04
6.094337e-09,2.981272e+04
6.162813e-09,2.969264e+04
6.231288e-09,2.977638e+04
6.299764e-09,3.001337e+04
6.368240e-09,3.030151e+04
6.436715e-09,3.057331e+04
6.505191e-09,3.070476e+04
6.573667e-09,3.100046e+04
6.642142e-09,3.141056e+04
6.710618e-09,3.163866e+04
6.779094e-09,3.209423e+04
6.847570e-09,3.235193e+04
6.916045e-09,3.283659e+04
6.984521e-09,3.312667e+04
7.052997e-09,3.341529e+04
7.121472e-09,3.359199e+04
7.189948e-09,3.401411e+04
7.258424e-09,3.405545e+04
7.326899e-09,3.418601e+04
7.395375e-09,3.408441e+04
7.463851e-09,3.389393e+04
7.532326e-09,3.386311e+04
7.600802e-09,3.366705e+04
7.669278e-09,3.334980e+04
7.737754e-09,3.311879e+04
7.806229e-09,3.274114e+04
7.874705e-09,3.236586e+04
7.943181e-09,3.208916e+04
8.011656e-09,3.187727e+04
8.080132e-09,3.165476e+04
8.148608e-09,3.143580e+04
8.217083e-09,3.129169e+04
8.285559e-09,3.114489e+04
8.354035e-09,3.098791e+04
8.422510e-09,3.096432e+04
8.490986e-09,3.096564e+04
8.559462e-09,3.078972e+04
8.627938e-09,3.083688e+04
8.696413e-09,3.093854e+04
8.764889e-09,3.104967e+04
8.833365e-09,3.117210e+04
8.901840e-09,3.127909e+04
8.970316e-09,3.178010e+04
9.038792e-09,3.216913e+04
9.107267e-09,3.259322e+04
9.175743e-09,3.295908e+04
9.244219e-09,3.330283e+04
9.312695e-09,3.373697e+04
9.381170e-09,3.415516e+04
9.449646e-09,3.446380e+04
9.518122e-09,3.469650e+04
9.586597e-09,3.492477e+04
9.655073e-09,3.499217e+04
9.723549e-09,3.497848e+04
9.792024e-09,3.497480e+04
9.860500e-09,3.492592e+04
9.928976e-09,3.471880e+04
9.997451e-09,3.456905e+04
1.006593e-08,3.419728e+04
1.013440e-08,3.402705e+04
1.020288e-08,3.353920e+04
1.027135e-08,3.313920e+04
1.033983e-08,3.286526e+04
1.040831e-08,3.259484e+04
1.047678e-08,3.227974e+04
1.054526e-08,3.198320e+04
1.061373e-08,3.174905e+04
1.068221e-08,3.143269e+04
1.075068e-08,3.126748e+04
1.081916e-08,3.124954e+04
1.088764e-08,3.123072e+04
1.095611e-08,3.133820e+04
1.102459e-08,3.137781e+04
1.109306e-08,3.143791e+04
1.116154e-08,3.174327e+04
1.123001e-08,3.198211e+04
1.129849e-08,3.231724e+04
1.136697e-08,3.279310e+04
1.143544e-08,3.328713e+04
1.150392e-08,3.371578e+04
1.157239e-08,3.414659e+04
1.164087e-08,3.457527e+04
1.170934e-08,3.496218e+04
1.177782e-08,3.519701e+04
1.184630e-08,3.550005e+04
1.191477e-08,3.568541e+04
1.198325e-08,3.570168e+04
1.205172e-08,3.576362e+04
1.212020e-08,3.594885e+04
1.218867e-08,3.580939e+04
1.225715e-08,3.559468e+04
1.232563e-08,3.541811e+04
1.239410e-08,3.511750e+04
1.246258e-08,3.480001e+04
1.253105e-08,3.436169e+04
1.259953e-08,3.396593e+04
1.266800e-08,3.354072e+04
1.273648e-08,3.327120e+04
1.280495e-08,3.274184e+04
1.287343e-08,3.224252e+04
1.294191e-08,3.201151e+04
1.301038e-08,3.164193e+04
1.307886e-08,3.129171e+04
1.314733e-08,3.098778e+04
1.321581e-08,3.072272e+04
1.328428e-08,3.064466e+04
1.335276e-08,3.066986e+04
1.342124e-08,3.076296e+04
1.348971e-08,3.088740e+04
1.355819e-08,3.102046e+04
1.362666e-08,3.143711e+04
1.369514e-08,3.180076e+04
1.376361e-08,3.221488e+04
1.383209e-08,3.263101e+04
1.390057e-08,3.313546e+04
1.396904e-08,3.354376e+04
1.403752e-08,3.412014e+04
1.410599e-08,3.456500e+04
1.417447e-08,3.512759e+04
1.424294e-08,3.573810e+04
1.431142e-08,3.599936e+04
1.437990e-08,3.623265e+04
1.444837e-08,3.632582e+04
1.451685e-08,3.652199e+04
1.458532e-08,3.660463e+04
1.465380e-08,3.652318e+04
1.472227e-08,3.638320e+04
1.479075e-08,3.618394e+04
1.485923e-08,3.575672e+04
1.492770e-08,3.525407e+04
1.499618e-08,3.483211e+04
1.506465e-08,3.443712e+04
1.513313e-08,3.388914e+04
1.520160e-08,3.337135e+04
1.527008e-08,3.276838e+04
1.533856e-08,3.219457e+04
1.540703e-08,3.168589e+04
1.547551e-08,3.120516e+04
1.554398e-08,3.073490e+04
1.561246e-08,3.050298e+04
1.568093e-08,3.022341e+04
1.574941e-08,3.008679e+04
1.581789e-08,2.986489e+04
1.588636e-08,2.975704e+04
1.595484e-08,2.988809e+04
1.602331e-08,3.010070e+04
1.609179e-08,3.040058e+04
1.616026e-08,3.075794e+04
1.622874e-08,3.125063e+04
1.629722e-08,3.192327e+04
1.636569e-08,3.245451e+04
1.643417e-08,3.304443e+04
1.650264e-08,3.354269e+04
1.657112e-08,3.423648e+04
1.663959e-08,3.470217e+04
1.670807e-08,3.522977e+04
1.677655e-08,3.575966e+04
1.684502e-08,3.600818e+04
1.691350e-08,3.639810e+04
1.698197e-08,3.651894e+04
1.705045e-08,3.665627e+04
1.711892e-08,3.672916e+04
1.718740e-08,3.664960e+04
1.725588e-08,3.636582e+04
1.732435e-08,3.604384e+04
1.739283e-08,3.573493e+04
1.746130e-08,3.525496e+04
1.752978e-08,3.476909e+04
1.759825e-08,3.437954e+04
1.766673e-08,3.383844e+04
1.773521e-08,3.308732e+04
1.780368e-08,3.239510e+04
1.787216e-08,3.187834e+04
1.794063e-08,3.139952e+04
1.800911e-08,3.074374e+04
1.807758e-08,3.037077e+04
1.814606e-08,3.010455e+04
1.821453e-08,3.001737e+04
1.828301e-08,2.995363e+04
1.835149e-08,2.981776e+04
1.841996e-08,2.995329e+04
1.848844e-08,3.012938e+04
1.855691e-08,3.038059e+04
1.862539e-08,3.062532e+04
1.869386e-08,3.106872e+04
1.876234e-08,3.160441e+04
1.883082e-08,3.222986e+04
1.889929e-08,3.283641e+04
1.896777e-08,3.344036e+04
1.903624e-08,3.413221e+04
1.910472e-08,3.477275e+04
1.917319e-08,3.536556e+04
1.924167e-08,3.580507e+04
1.931015e-08,3.627737e+04
1.937862e-08,3.659221e+04
1.944710e-08,3.678310e+04
1.951557e-08,3.690815e+04
1.958405e-08,3.699316e+04
1.965252e-08,3.705238e+04
1.972100e-08,3.682896e+04
1.978948e-08,3.631075e+04
1.985795e-08,3.594692e+04
1.992643e-08,3.555248e+04
1.999490e-08,3.517635e+04
2.006338e-08,3.467134e+04
2.013185e-08,3.413392e+04
2.020033e-08,3.341270e+04
2.026881e-08,3.269360e+04
2.033728e-08,3.209902e+04
2.040576e-08,3.157002e+04
2.047423e-08,3.112246e+04
2.054271e-08,3.067588e+04
2.061118e-08,3.014385e+04
2.067966e-08,3.004956e+04
2.074814e-08,2.985612e+04
2.081661e-08,2.978236e+04
2.088509e-08,2.975231e+04
2.095356e-08,2.992822e+04
2.102204e-08,3.013440e+04
2.109051e-08,3.041488e+04
2.115899e-08,3.087429e+04
2.122747e-08,3.142203e+04
2.129594e-08,3.195130e+04
2.136442e-08,3.245450e+04
2.143289e-08,3.293536e+04
2.150137e-08,3.364366e+04
2.156984e-08,3.428598e+04
2.163832e-08,3.483333e+04
2.170680e-08,3.525826e+04
2.177527e-08,3.577462e+04
2.184375e-08,3.598413e+04
2.191222e-08,3.619127e+04
2.198070e-08,3.619262e+04
2.204917e-08,3.622425e+04
2.211765e-08,3.620277e+04
2.218613e-08,3.623793e+04
2.225460e-08,3.610878e+04
2.232308e-08,3.591701e+04
2.239155e-08,3.560848e+04
2.246003e-08,3.506880e+04
2.252850e-08,3.449727e+04
2.259698e-08,3.397244e+04
2.266546e-08,3.334199e+04
2.273393e-08,3.256498e+04
2.280241e-08,3.192239e+04
2.287088e-08,3.123391e+04
2.293936e-08,3.068004e+04
2.300783e-08,3.015643e+04
2.307631e-08,2.962132e+04
2.314478e-08,2.913230e+04
2.321326e-08,2.887645e+04
2.328174e-08,2.869287e+04
2.335021e-08,2.867033e+04
2.341869e-08,2.870569e+04
2.348716e-08,2.868355e+04
2.355564e-08,2.900650e+04
2.362411e-08,2.951592e+04
2.369259e-08,2.982592e+04
2.376107e-08,3.025362e+04
2.382954e-08,3.088568e+04
2.389802e-08,3.141401e+04
2.396649e-08,3.205711e+04
2.403497e-08,3.255759e+04
2.410344e-08,3.300856e+04
2.417192e-08,3.351014e+04
2.424040e-08,3.402406e+04
2.430887e-08,3.446593e+04
2.437735e-08,3.476962e+04
2.444582e-08,3.490646e+04
2.451430e-08,3.508083e+04
2.458277e-08,3.518030e+04
2.465125e-08,3.516801e+04
2.471973e-08,3.511488e+04
2.478820e-08,3.498838e+04
2.485668e-08,3.470964e+04
2.492515e-08,3.428981e+04
2.499363e-08,3.374096e+04
2.506210e-08,3.328777e+04
2.513058e-08,3.269213e+04
2.519906e-08,3.205434e+04
2.526753e-08,3.131769e+04
2.533601e-08,3.081435e+04
2.540448e-08,3.015790e+04
2.547296e-08,2.966167e+04
2.554143e-08,2.893418e+04
2.560991e-08,2.847818e+04
2.567839e-08,2.810416e+04
2.574686e-08,2.765676e+04
2.581534e-08,2.720592e+04
2.588381e-08,2.702630e+04
2.595229e-08,2.690914e+04
2.602076e-08,2.699428e+04
2.608924e-08,2.712219e+04
2.615772e-08,2.731219e+04
2.622619e-08,2.759780e+04
2.629467e-08,2.810896e+04
2.636314e-08,2.869784e+04
2.643162e-08,2.933085e+04
2.650009e-08,2.987989e+04
2.656857e-08,3.045037e+04
2.663705e-08,3.112196e+04
2.670552e-08,3.170076e+04
2.677400e-08,3.234714e+04
2.684247e-08,3.276471e+04
2.691095e-08,3.328569e+04
2.697942e-08,3.366467e+04
2.704790e-08,3.388787e+04
2.711638e-08,3.400490e+04
2.718485e-08,3.414432e+04
2.725333e-08,3.418343e+04
2.732180e-08,3.425430e+04
2.739028e-08,3.407174e+04
2.745875e-08,3.378117e+04
2.752723e-08,3.344364e+04
2.759571e-08,3.299880e+04
2.766418e-08,3.254664e+04
2.773266e-08,3.208452e+04
2.780113e-08,3.158068e+04
2.786961e-08,3.086284e+04
2.793808e-08,3.020768e+04
2.800656e-08,2.967543e+04
2.807503e-08,2.891389e+04
2.814351e-08,2.849229e+04
2.821199e-08,2.790409e+04
2.828046e-08,2.753611e+04
2.834894e-08,2.717742e+04
2.841741e-08,2.692263e+04
2.848589e-08,2.674527e+04
2.855436e-08,2.680752e+04
2.862284e-08,2.694699e+04
2.869132e-08,2.700827e+04
2.875979e-08,2.744027e+04
2.882827e-08,2.773878e+04
2.889674e-08,2.831119e+04
2.896522e-08,2.882327e+04
2.903369e-08,2.938654e+04
2.910217e-08,2.988403e+04
2.917065e-08,3.047146e+04
2.923912e-08,3.102185e+04
2.930760e-08,3.159339e+04
2.937607e-08,3.200395e+04
2.944455e-08,3.237709e+04
2.951302e-08,3.283911e+04
2.958150e-08,3.302374e+04
2.964998e-08,3.337738e+04
2.971845e-08,3.338821e+04
2.978693e-08,3.356252e+04
2.985540e-08,3.342704e+04
2.992388e-08,3.329609e+04
2.999235e-08,3.318730e+04
3.006083e-08,3.305357e+04
3.012931e-08,3.280079e+04
3.019778e-08,3.255651e+04
3.026626e-08,3.215013e+04
3.033473e-08,3.173416e+04
3.040321e-08,3.134411e+04
3.047168e-08,3.088448e+04
3.054016e-08,3.031512e+04
3.060864e-08,2.968567e+04
3.067711e-08,2.910740e+04
3.074559e-08,2.861770e+04
3.081406e-08,2.827210e+04
3.088254e-08,2.794096e+04
3.095101e-08,2.775219e+04
3.101949e-08,2.758424e+04
3.108797e-08,2.757604e+04
3.115644e-08,2.750986e+04
3.122492e-08,2.763581e+04
3.129339e-08,2.791713e+04
3.136187e-08,2.809960e+04
3.143034e-08,2.857221e+04
3.149882e-08,2.909168e+04
3.156730e-08,2.954998e+04
3.163577e-08,3.008283e+04
3.170425e-08,3.062724e+04
3.177272e-08,3.116015e+04
3.184120e-08,3.164821e+04
3.190967e-08,3.228486e+04
3.197815e-08,3.273026e+04
3.204663e-08,3.306427e+04
3.211510e-08,3.346137e+04
3.218358e-08,3.393693e+04
3.225205e-08,3.419621e+04
3.232053e-08,3.437650e+04
3.238900e-08,3.448575e+04
3.245748e-08,3.461247e+04
3.252596e-08,3.463762e+04
3.259443e-08,3.460561e+04
3.266291e-08,3.448959e+04
3.273138e-08,3.418114e+04
3.279986e-08,3.383581e+04
3.286833e-08,3.339880e+04
3.293681e-08,3.299836e+04
3.300529e-08,3.256515e+04
3.307376e-08,3.202372e+04
3.314224e-08,3.157596e+04
3.321071e-08,3.111786e+04
3.327919e-08,3.067237e+04
3.334766e-08,3.008347e+04
3.341614e-08,2.974328e+04
3.348461e-08,2.929360e+04
3.355309e-08,2.908122e+04
3.362157e-08,2.871046e+04
3.369004e-08,2.853145e+04
3.375852e-08,2.843529e+04
3.382699e-08,2.844112e+04
3.389547e-08,2.863757e+04
3.396394e-08,2.889610e+04
3.403242e-08,2.921116e+04
3.410090e-08,2.954303e+04
3.416937e-08,3.011742e+04
3.423785e-08,3.070912e+04
3.430632e-08,3.137566e+04
3.437480e-08,3.190657e+04
3.444327e-08,3.249907e+04
3.451175e-08,3.306876e+04
3.458023e-08,3.365769e+04
3.464870e-08,3.429759e+04
3.471718e-08,3.477014e+04
3.478565e-08,3.508418e+04
3.485413e-08,3.549739e+04
3.492260e-08,3.583459e+04
3.499108e-08,3.597143e+04
3.505956e-08,3.612996e+04
3.512803e-08,3.618038e+04
3.519651e-08,3.616635e+04
3.526498e-08,3.605989e+04
3.533346e-08,3.600499e+04
3.540193e-08,3.571339e+04
3.547041e-08,3.534281e+04
3.553889e-08,3.504366e+04
3.560736e-08,3.451635e+04
3.567584e-08,3.397895e+04
3.574431e-08,3.349512e+04
3.581279e-08,3.288343e+04
3.588126e-08,3.228427e+04
3.594974e-08,3.159559e+04
3.601822e-08,3.109628e+04
3.608669e-08,3.042916e+04
3.615517e-08,2.991087e+04
3.622364e-08,2.940830e+04
3.629212e-08,2.897134e+04
3.636059e-08,2.870152e+04
3.642907e-08,2.853224e+04
3.649755e-08,2.844620e+04
3.656602e-08,2.845573e+04
3.663450e-08,2.859068e+04
3.670297e-08,2.877764e+04
3.677145e-08,2.920944e+04
3.683992e-08,2.969438e+04
3.690840e-08,3.023422e+04
3.697688e-08,3.087971e+04
3.704535e-08,3.152358e+04
3.711383e-08,3.204948e+04
3.718230e-08,3.254852e+04
3.725078e-08,3.318756e+04
3.731925e-08,3.377715e+04
3.738773e-08,3.440530e+04
3.745621e-08,3.495588e+04
3.752468e-08,3.542871e+04
3.759316e-08,3.575560e+04
3.766163e-08,3.608752e+04
3.773011e-08,3.629910e+04
3.779858e-08,3.644615e+04
3.786706e-08,3.643750e+04
3.793554e-08,3.639836e+04
3.800401e-08,3.621779e+04
3.807249e-08,3.613819e+04
3.814096e-08,3.589850e+04
3.820944e-08,3.548088e+04
3.827791e-08,3.505651e+04
3.834639e-08,3.465425e+04
3.841486e-08,3.416799e+04
3.848334e-08,3.342534e+04
3.855182e-08,3.277353e+04
3.862029e-08,3.211619e+04
3.868877e-08,3.141382e+04
3.875724e-08,3.066931e+04
3.882572e-08,2.997648e+04
3.889419e-08,2.937983e+04
3.896267e-08,2.900270e+04
3.903115e-08,2.853906e+04
3.909962e-08,2.821978e+04
3.916810e-08,2.808334e+04
3.923657e-08,2.799043e+04
3.930505e-08,2.796738e+04
3.937352e-08,2.804520e+04
3.944200e-08,2.825660e+04
3.951048e-08,2.870363e+04
3.957895e-08,2.918863e+04
3.964743e-08,2.980766e+04
3.971590e-08,3.041205e+04
3.978438e-08,3.111328e+04
3.985285e-08,3.181189e+04
3.992133e-08,3.243447e+04
3.998981e-08,3.308243e+04
4.005828e-08,3.376604e+04
4.012676e-08,3.444762e+04
4.019523e-08,3.503046e+04
4.026371e-08,3.546124e+04
4.033218e-08,3.587204e+04
4.040066e-08,3.638829e+04
4.046914e-08,3.656926e+04
4.053761e-08,3.681341e+04
4.060609e-08,3.690872e+04
4.067456e-08,3.697866e+04
4.074304e-08,3.694209e+04
4.081151e-08,3.669080e+04
4.087999e-08,3.647256e+04
4.094847e-08,3.607227e+04
4.101694e-08,3.566977e+04
4.108542e-08,3.518905e+04
4.115389e-08,3.469660e+04
4.122237e-08,3.405389e+04
4.129084e-08,3.339657e+04
4.135932e-08,3.263449e+04
4.142780e-08,3.197211e+04
4.149627e-08,3.125612e+04
4.156475e-08,3.066148e+04
4.163322e-08,3.005797e+04
4.170170e-08,2.954504e+04
4.177017e-08,2.906665e+04
4.183865e-08,2.865047e+04
4.190713e-08,2.857442e+04
4.197560e-08,2.842679e+04
4.204408e-08,2.848733e+04
4.211255e-08,2.863338e+04
4.218103e-08,2.888816e+04
4.224950e-08,2.924405e+04
4.231798e-08,2.960795e+04
4.238646e-08,2.999250e+04
4.245493e-08,3.046626e+04
4.252341e-08,3.103093e+04
4.259188e-08,3.172925e+04
4.266036e-08,3.246758e+04
4.272883e-08,3.295925e+04
4.279731e-08,3.362427e+04
4.286579e-08,3.432270e+04
4.293426e-08,3.470967e+04
4.300274e-08,3.512100e+04
4.307121e-08,3.545138e+04
4.313969e-08,3.582314e+04
4.320816e-08,3.635588e+04
4.327664e-08,3.657693e+04
4.334511e-08,3.662180e+04
4.341359e-08,3.667655e+04
4.348207e-08,3.663111e+04
4.355054e-08,3.655904e+04
4.361902e-08,3.634000e+04
4.368749e-08,3.591573e+04
4.375597e-08,3.560442e+04
4.382444e-08,3.504197e+04
4.389292e-08,3.464053e+04
4.396140e-08,3.413348e+04
4.402987e-08,3.355705e+04
4.409835e-08,3.299300e+04
4.416682e-08,3.249574e+04
4.423530e-08,3.212780e+04
4.430377e-08,3.162904e+04
4.437225e-08,3.111650e+04
4.444073e-08,3.070395e+04
4.450920e-08,3.050446e+04
4.457768e-08,3.028747e+04
4.464615e-08,3.019350e+04
4.471463e-08,3.014634e+04
4.478310e-08,3.017630e+04
4.485158e-08,3.032945e+04
4.492006e-08,3.066784e+04
4.498853e-08,3.109434e+04
4.505701e-08,3.151826e+04
4.512548e-08,3.210374e+04
4.519396e-08,3.254856e+04
4.526243e-08,3.305697e+04
4.533091e-08,3.368741e+04
4.539939e-08,3.424583e+04
4.546786e-08,3.476094e+04
4.553634e-08,3.523929e+04
4.560481e-08,3.565995e+04
4.567329e-08,3.618943e+04
4.574176e-08,3.675455e+04
4.581024e-08,3.713057e+04
4.587872e-08,3.738901e+04
4.594719e-08,3.772684e+04
4.601567e-08,3.799320e+04
4.608414e-08,3.805598e+04
4.615262e-08,3.800665e+04
4.622109e-08,3.796057e+04
4.628957e-08,3.776655e+04
4.635805e-08,3.754425e+04
4.642652e-08,3.724693e+04
4.649500e-08,3.688654e+04
4.656347e-08,3.638002e+04
4.663195e-08,3.587505e+04
4.670042e-08,3.511611e+04
4.676890e-08,3.455191e+04
4.683738e-08,3.396703e+04
4.690585e-08,3.334733e+04
4.697433e-08,3.253534e+04
4.704280e-08,3.198420e+04
4.711128e-08,3.145335e+04
4.717975e-08,3.100756e+04
4.724823e-08,3.072497e+04
4.731671e-08,3.049854e+04
4.738518e-08,3.037431e+04
4.745366e-08,3.027328e+04
4.752213e-08,3.036868e+04
4.759061e-08,3.064727e+04
4.765908e-08,3.100394e+04
4.772756e-08,3.136486e+04
4.779604e-08,3.182698e+04
4.786451e-08,3.245796e+04
4.793299e-08,3.297877e+04
4.800146e-08,3.362486e+04
4.806994e-08,3.430207e+04
4.813841e-08,3.496972e+04
4.820689e-08,3.556583e+04
4.827537e-08,3.627697e+04
4.834384e-08,3.667709e+04
4.841232e-08,3.709413e+04
4.848079e-08,3.758991e+04
4.854927e-08,3.794729e+04
4.861774e-08,3.819445e+04
4.868622e-08,3.847997e+04
4.875469e-08,3.867144e+04
4.882317e-08,3.880157e+04
4.889165e-08,3.883089e+04
4.896012e-08,3.886368e+04
4.902860e-08,3.867184e+04
4.909707e-08,3.847017e+04
4.916555e-08,3.796523e+04
4.923402e-08,3.760030e+04
4.930250e-08,3.698204e+04
4.937098e-08,3.628941e+04
4.943945e-08,3.578214e+04
4.950793e-08,3.513862e+04
4.957640e-08,3.431495e+04
4.964488e-08,3.347446e+04
4.971335e-08,3.258951e+04
4.978183e-08,3.196057e+04
4.985031e-08,3.124920e+04
4.991878e-08,3.076913e+04
4.998726e-08,3.027581e+04
5.005573e-08,2.986450e+04
5.012421e-08,2.942042e+04
5.019268e-08,2.917689e+04
5.026116e-08,2.912616e+04
5.032964e-08,2.915180e+04
5.039811e-08,2.925714e+04
5.046659e-08,2.953209e+04
5.053506e-08,2.980232e+04
5.060354e-08,3.035832e+04
5.067201e-08,3.100078e+04
5.074049e-08,3.156754e+04
5.080897e-08,3.216666e+04
5.087744e-08,3.277217e+04
5.094592e-08,3.364119e+04
5.101439e-08,3.428735e+04
5.108287e-08,3.495980e+04
5.115134e-08,3.561731e+04
5.121982e-08,3.612230e+04
5.128830e-08,3.669388e+04
5.135677e-08,3.708981e+04
5.142525e-08,3.739206e+04
5.149372e-08,3.788098e+04
5.156220e-08,3.783959e+04
5.163067e-08,3.779376e+04
5.169915e-08,3.769095e+04
5.176763e-08,3.747604e+04
5.183610e-08,3.744837e+04
5.190458e-08,3.702132e+04
5.197305e-08,3.657311e+04
5.204153e-08,3.611054e+04
5.211000e-08,3.536093e+04
5.217848e-08,3.444138e+04
5.224696e-08,3.371739e+04
5.231543e-08,3.306475e+04
5.238391e-08,3.211377e+04
5.245238e-08,3.127086e+04
